Data from zoltapolka77percent_AbsoluteIrradiance__0__19-20-35-388.txt Node

Date: Thu Jun 19 19:20:35 CEST 2025
User: DM
Spectrometer: HR600768
Trigger mode: 0
Integration Time (sec): 1,000000E-1
Scans to average: 5
Nonlinearity correction enabled: true
Boxcar width: 0
Storing dark spectrum: false
XAxis mode: Wavelengths
Number of Pixels in Spectrum: 2048
>>>>>Begin Spectral Data<<<<<
178,699	0
179,053	0
179,407	0
179,761	0
180,115	0
180,468	0
180,822	0
181,176	0
181,53	0
181,884	0
182,237	0
182,591	0
182,945	0
183,299	0
183,652	0
184,006	0
184,36	0
184,713	0
185,067	0
185,42	0
185,774	0
186,128	0
186,481	0
186,835	0
187,188	0
187,542	0
187,895	0
188,249	0
188,602	0
188,955	0
189,309	0
189,662	0
190,016	0
190,369	0
190,722	0
191,075	0
191,429	0
191,782	0
192,135	0
192,488	0
192,842	0
193,195	0
193,548	0
193,901	0
194,254	0
194,607	0
194,961	0
195,314	0
195,667	0
196,02	0
196,373	0
196,726	0
197,079	0
197,432	0
197,785	0
198,138	0
198,49	0
198,843	0
199,196	0
199,549	0
199,902	0
200,255	0
200,607	0
200,96	0
201,313	0
201,666	0
202,018	0
202,371	0
202,724	0
203,076	0
203,429	0
203,782	0
204,134	0
204,487	0
204,84	0
205,192	0
205,545	0
205,897	0
206,25	0
206,602	0
206,955	0
207,307	0
207,659	0
208,012	0,27842
208,364	6,41836
208,717	12,24304
209,069	14,99098
209,421	17,69061
209,774	15,83225
210,126	15,51374
210,478	18,70058
210,83	12,9412
211,183	14,442
211,535	14,71292
211,887	11,92069
212,239	9,44007
212,591	8,45778
212,943	9,75085
213,296	9,03958
213,648	8,09023
214	7,40695
214,352	11,21884
214,704	7,529
215,056	6,56109
215,408	8,20433
215,76	6,24874
216,112	6,13618
216,464	4,79966
216,816	6,16563
217,168	5,96246
217,519	6,62634
217,871	6,48188
218,223	4,45783
218,575	4,74297
218,927	4,07272
219,279	4,79909
219,63	3,61549
219,982	4,07668
220,334	4,20262
220,686	3,30491
221,037	4,20316
221,389	3,99521
221,741	3,75732
222,092	3,71254
222,444	4,33076
222,796	3,86188
223,147	3,55329
223,499	3,09891
223,85	3,16339
224,202	2,3518
224,553	2,63128
224,905	3,20287
225,256	1,59599
225,608	3,42878
225,959	2,64905
226,311	2,90534
226,662	2,6793
227,014	1,86453
227,365	2,20721
227,716	2,46801
228,068	1,70402
228,419	2,58338
228,77	1,84945
229,121	2,11246
229,473	2,02527
229,824	1,87899
230,175	1,72901
230,526	1,43227
230,878	1,70595
231,229	1,65321
231,58	1,08424
231,931	1,98002
232,282	1,30481
232,633	1,57416
232,984	1,53088
233,335	1,41144
233,686	1,66996
234,037	1,39545
234,388	1,22262
234,739	1,25062
235,09	1,07226
235,441	1,08619
235,792	1,40621
236,143	0,9052
236,494	0,77036
236,845	1,113
237,196	1,27824
237,546	1,25742
237,897	0,89335
238,248	0,99919
238,599	0,80315
238,949	0,90169
239,3	1,06961
239,651	0,87455
240,002	0,88795
240,352	0,92455
240,703	0,77156
241,054	0,71849
241,404	0,75925
241,755	0,93721
242,105	0,83376
242,456	0,57986
242,806	0,65057
243,157	0,62047
243,507	0,4942
243,858	0,80914
244,208	0,54611
244,559	0,87556
244,909	0,70425
245,26	0,68139
245,61	0,87749
245,96	0,58111
246,311	0,59876
246,661	0,70246
247,011	0,50187
247,362	0,69072
247,712	0,61662
248,062	0,7204
248,413	0,75117
248,763	0,55857
249,113	0,62659
249,463	0,5806
249,813	0,48024
250,163	0,50614
250,514	0,46787
250,864	0,52749
251,214	0,53358
251,564	0,46668
251,914	0,53533
252,264	0,46472
252,614	0,4663
252,964	0,5621
253,314	0,55771
253,664	0,46044
254,014	0,36339
254,364	0,57742
254,714	0,40769
255,064	0,36891
255,413	0,48613
255,763	0,42319
256,113	0,27135
256,463	0,48255
256,813	0,51503
257,162	0,3412
257,512	0,62563
257,862	0,40075
258,212	0,32449
258,561	0,48483
258,911	0,36765
259,261	0,31129
259,61	0,41274
259,96	0,37815
260,309	0,44486
260,659	0,42334
261,009	0,42055
261,358	0,45801
261,708	0,32818
262,057	0,50687
262,407	0,23638
262,756	0,44755
263,106	0,51714
263,455	0,34491
263,804	0,45957
264,154	0,34044
264,503	0,44229
264,852	0,43316
265,202	0,33618
265,551	0,33876
265,9	0,36825
266,25	0,36672
266,599	0,46373
266,948	0,45168
267,297	0,36652
267,647	0,44477
267,996	0,38252
268,345	0,32589
268,694	0,37455
269,043	0,35154
269,392	0,33361
269,741	0,19804
270,091	0,48704
270,44	0,34974
270,789	0,35484
271,138	0,38964
271,487	0,31885
271,836	0,37948
272,185	0,39356
272,533	0,41709
272,882	0,3406
273,231	0,33325
273,58	0,33895
273,929	0,33947
274,278	0,31771
274,627	0,30599
274,975	0,29558
275,324	0,35513
275,673	0,37446
276,022	0,27011
276,37	0,38634
276,719	0,31809
277,068	0,1905
277,417	0,1863
277,765	0,35211
278,114	0,29711
278,462	0,30163
278,811	0,24374
279,16	0,31669
279,508	0,2792
279,857	0,3674
280,205	0,27462
280,554	0,36989
280,902	0,16273
281,251	0,27668
281,599	0,19698
281,948	0,29018
282,296	0,25337
282,644	0,21657
282,993	0,27143
283,341	0,26747
283,689	0,26894
284,038	0,2683
284,386	0,24194
284,734	0,33565
285,083	0,23668
285,431	0,2438
285,779	0,26959
286,127	0,20524
286,475	0,26133
286,824	0,23222
287,172	0,25488
287,52	0,16292
287,868	0,22475
288,216	0,20577
288,564	0,23181
288,912	0,26093
289,26	0,21686
289,608	0,21577
289,956	0,19707
290,304	0,28417
290,652	0,17489
291	0,26174
291,348	0,21788
291,696	0,19933
292,044	0,22694
292,391	0,23501
292,739	0,20021
293,087	0,25914
293,435	0,18494
293,783	0,21342
294,13	0,20428
294,478	0,20768
294,826	0,16106
295,174	0,16311
295,521	0,20404
295,869	0,11495
296,217	0,16648
296,564	0,16089
296,912	0,14298
297,259	0,1488
297,607	0,16121
297,955	0,17106
298,302	0,22212
298,65	0,14769
298,997	0,14486
299,345	0,14841
299,692	0,15093
300,04	0,14297
300,387	0,17722
300,734	0,16404
301,082	0,14403
301,429	0,13933
301,776	0,17601
302,124	0,14271
302,471	0,16214
302,818	0,16578
303,166	0,15925
303,513	0,1733
303,86	0,09984
304,207	0,21078
304,554	0,13592
304,902	0,14438
305,249	0,13295
305,596	0,13236
305,943	0,14072
306,29	0,10541
306,637	0,15067
306,984	0,13115
307,331	0,13398
307,678	0,14281
308,025	0,14315
308,372	0,12467
308,719	0,19588
309,066	0,1387
309,413	0,14573
309,76	0,12797
310,107	0,11604
310,454	0,15788
310,801	0,22828
311,148	0,13437
311,494	0,16816
311,841	0,09534
312,188	0,12204
312,535	0,16585
312,881	0,19788
313,228	0,12504
313,575	0,12307
313,921	0,15985
314,268	0,15541
314,615	0,09845
314,961	0,14203
315,308	0,14181
315,655	0,14245
316,001	0,13429
316,348	0,13675
316,694	0,11204
317,041	0,15349
317,387	0,14183
317,734	0,12942
318,08	0,10333
318,427	0,12679
318,773	0,13273
319,119	0,1083
319,466	0,1531
319,812	0,12061
320,158	0,1245
320,505	0,12979
320,851	0,11253
321,197	0,16098
321,544	0,12532
321,89	0,11891
322,236	0,11101
322,582	0,13174
322,928	0,10813
323,275	0,08978
323,621	0,11558
323,967	0,13311
324,313	0,11627
324,659	0,14753
325,005	0,14858
325,351	0,1623
325,697	0,11386
326,043	0,12235
326,389	0,14931
326,735	0,11191
327,081	0,10122
327,427	0,12022
327,773	0,13254
328,119	0,11402
328,465	0,07586
328,811	0,11216
329,156	0,09849
329,502	0,11897
329,848	0,07733
330,194	0,12871
330,54	0,0819
330,885	0,08338
331,231	0,08828
331,577	0,08145
331,922	0,11351
332,268	0,10002
332,614	0,09645
332,959	0,14407
333,305	0,08057
333,651	0,08958
333,996	0,1101
334,342	0,08223
334,687	0,12577
335,033	0,12702
335,378	0,10216
335,724	0,11671
336,069	0,09498
336,415	0,11944
336,76	0,10646
337,105	0,09996
337,451	0,10632
337,796	0,09488
338,142	0,08911
338,487	0,10068
338,832	0,11269
339,177	0,07787
339,523	0,11087
339,868	0,11265
340,213	0,11188
340,558	0,08622
340,904	0,10607
341,249	0,06676
341,594	0,06105
341,939	0,09683
342,284	0,09785
342,629	0,0899
342,974	0,09689
343,319	0,10107
343,664	0,09937
344,009	0,10947
344,354	0,1065
344,699	0,08175
345,044	0,08021
345,389	0,07651
345,734	0,10521
346,079	0,12971
346,424	0,10873
346,769	0,11673
347,114	0,08298
347,459	0,08616
347,803	0,07969
348,148	0,11366
348,493	0,07384
348,838	0,14764
349,182	0,09755
349,527	0,11703
349,872	0,09162
350,216	0,09427
350,561	0,0964
350,906	0,07628
351,25	0,1015
351,595	0,12024
351,94	0,10671
352,284	0,09618
352,629	0,07848
352,973	0,07533
353,318	0,06068
353,662	0,08147
354,007	0,07688
354,351	0,10742
354,695	0,0646
355,04	0,08387
355,384	0,09308
355,729	0,07561
356,073	0,09729
356,417	0,08371
356,762	0,07853
357,106	0,08102
357,45	0,10656
357,794	0,11349
358,139	0,07183
358,483	0,07844
358,827	0,07221
359,171	0,04444
359,515	0,08618
359,86	0,08987
360,204	0,07772
360,548	0,1072
360,892	0,09485
361,236	0,09197
361,58	0,11575
361,924	0,07646
362,268	0,08776
362,612	0,0924
362,956	0,06682
363,3	0,09329
363,644	0,08145
363,988	0,09585
364,332	0,11484
364,675	0,05217
365,019	0,11093
365,363	0,10431
365,707	0,05528
366,051	0,08558
366,394	0,09539
366,738	0,08324
367,082	0,1212
367,426	0,08305
367,769	0,10194
368,113	0,10389
368,457	0,06834
368,8	0,07704
369,144	0,0839
369,488	0,11126
369,831	0,0687
370,175	0,08401
370,518	0,07528
370,862	0,06706
371,205	0,0656
371,549	0,09368
371,892	0,07697
372,236	0,08551
372,579	0,07771
372,923	0,12375
373,266	0,06598
373,609	0,07673
373,953	0,1079
374,296	0,08904
374,639	0,0895
374,983	0,0796
375,326	0,07637
375,669	0,09339
376,012	0,05319
376,356	0,08158
376,699	0,06687
377,042	0,10717
377,385	0,0844
377,728	0,10138
378,071	0,09106
378,414	0,08014
378,758	0,07646
379,101	0,06238
379,444	0,09863
379,787	0,05096
380,13	0,10005
380,473	0,10278
380,816	0,08482
381,159	0,08392
381,501	0,08841
381,844	0,0583
382,187	0,11428
382,53	0,10098
382,873	0,08897
383,216	0,1006
383,559	0,08598
383,901	0,09004
384,244	0,05507
384,587	0,0648
384,93	0,08385
385,272	0,09812
385,615	0,07834
385,958	0,07489
386,3	0,06749
386,643	0,07466
386,986	0,07064
387,328	0,09777
387,671	0,07396
388,013	0,05933
388,356	0,0566
388,698	0,07701
389,041	0,06483
389,383	0,06147
389,726	0,07407
390,068	0,07881
390,411	0,09749
390,753	0,06274
391,096	0,07927
391,438	0,07917
391,78	0,07669
392,123	0,04602
392,465	0,08235
392,807	0,0637
393,15	0,06874
393,492	0,06172
393,834	0,06262
394,176	0,06375
394,518	0,06428
394,861	0,05473
395,203	0,07451
395,545	0,07984
395,887	0,08189
396,229	0,085
396,571	0,04357
396,913	0,09337
397,255	0,09192
397,597	0,06335
397,939	0,06769
398,281	0,07932
398,623	0,06629
398,965	0,06928
399,307	0,06795
399,649	0,08386
399,991	0,04973
400,333	0,07851
400,675	0,06767
401,016	0,06689
401,358	0,08361
401,7	0,06177
402,042	0,06736
402,384	0,06145
402,725	0,05855
403,067	0,07725
403,409	0,08174
403,75	0,06935
404,092	0,05883
404,434	0,06901
404,775	0,06321
405,117	0,04949
405,459	0,05553
405,8	0,06791
406,142	0,05135
406,483	0,07243
406,825	0,07467
407,166	0,0531
407,508	0,07381
407,849	0,06813
408,19	0,06627
408,532	0,06062
408,873	0,04489
409,215	0,07515
409,556	0,07786
409,897	0,05402
410,239	0,05
410,58	0,07013
410,921	0,09597
411,262	0,07048
411,604	0,06819
411,945	0,06754
412,286	0,0483
412,627	0,06291
412,968	0,0791
413,309	0,04818
413,651	0,0659
413,992	0,05772
414,333	0,04677
414,674	0,06296
415,015	0,05697
415,356	0,06315
415,697	0,06582
416,038	0,05808
416,379	0,05961
416,72	0,05371
417,061	0,06905
417,402	0,05198
417,742	0,07089
418,083	0,05125
418,424	0,06916
418,765	0,05368
419,106	0,04103
419,447	0,05252
419,787	0,05563
420,128	0,04403
420,469	0,0643
420,81	0,05006
421,15	0,04697
421,491	0,0411
421,832	0,05259
422,172	0,06124
422,513	0,06278
422,853	0,07143
423,194	0,06263
423,535	0,04493
423,875	0,06089
424,216	0,0803
424,556	0,04788
424,897	0,059
425,237	0,05072
425,577	0,06817
425,918	0,06448
426,258	0,06178
426,599	0,06994
426,939	0,06534
427,279	0,07232
427,62	0,07061
427,96	0,0751
428,3	0,04655
428,641	0,04303
428,981	0,06174
429,321	0,05799
429,661	0,05447
430,001	0,07149
430,342	0,04826
430,682	0,04623
431,022	0,06469
431,362	0,06959
431,702	0,05745
432,042	0,05547
432,382	0,07186
432,722	0,0493
433,062	0,04779
433,402	0,04774
433,742	0,05616
434,082	0,07891
434,422	0,05886
434,762	0,08403
435,102	0,05881
435,442	0,05126
435,782	0,06652
436,121	0,02655
436,461	0,06337
436,801	0,06526
437,141	0,06129
437,481	0,05928
437,82	0,06017
438,16	0,05228
438,5	0,06645
438,839	0,06446
439,179	0,07807
439,519	0,05842
439,858	0,04132
440,198	0,0632
440,538	0,04811
440,877	0,06744
441,217	0,08385
441,556	0,06722
441,896	0,05905
442,235	0,07446
442,575	0,05115
442,914	0,07524
443,254	0,06031
443,593	0,06394
443,932	0,04087
444,272	0,0528
444,611	0,0557
444,95	0,06901
445,29	0,04685
445,629	0,07406
445,968	0,04681
446,308	0,04441
446,647	0,07333
446,986	0,05331
447,325	0,0452
447,664	0,04473
448,003	0,06931
448,343	0,06692
448,682	0,064
449,021	0,06824
449,36	0,05157
449,699	0,03407
450,038	0,07271
450,377	0,07228
450,716	0,06524
451,055	0,06899
451,394	0,06747
451,733	0,06467
452,072	0,06226
452,411	0,05989
452,75	0,05895
453,089	0,0716
453,427	0,05704
453,766	0,04705
454,105	0,05978
454,444	0,08274
454,783	0,07284
455,121	0,07084
455,46	0,06806
455,799	0,05218
456,137	0,06711
456,476	0,05118
456,815	0,07186
457,153	0,05295
457,492	0,05761
457,831	0,06601
458,169	0,0697
458,508	0,06177
458,846	0,06651
459,185	0,05893
459,523	0,05136
459,862	0,06869
460,2	0,0766
460,539	0,05749
460,877	0,06303
461,215	0,05827
461,554	0,07268
461,892	0,06837
462,231	0,0655
462,569	0,06078
462,907	0,0533
463,245	0,04722
463,584	0,049
463,922	0,06186
464,26	0,06081
464,598	0,04506
464,937	0,06069
465,275	0,06733
465,613	0,07878
465,951	0,05582
466,289	0,06427
466,627	0,06692
466,965	0,04955
467,303	0,05543
467,641	0,05271
467,979	0,06479
468,317	0,06793
468,655	0,0565
468,993	0,06365
469,331	0,06317
469,669	0,06628
470,007	0,05402
470,345	0,06966
470,683	0,0612
471,021	0,06148
471,358	0,06634
471,696	0,05997
472,034	0,07647
472,372	0,07412
472,709	0,06374
473,047	0,07238
473,385	0,07322
473,723	0,07219
474,06	0,06466
474,398	0,05562
474,735	0,06983
475,073	0,06581
475,411	0,06745
475,748	0,06734
476,086	0,06021
476,423	0,06273
476,761	0,07232
477,098	0,07536
477,436	0,07515
477,773	0,08301
478,111	0,07197
478,448	0,06237
478,785	0,06886
479,123	0,07491
479,46	0,06913
479,797	0,07479
480,135	0,0769
480,472	0,08387
480,809	0,09213
481,147	0,09452
481,484	0,08027
481,821	0,07377
482,158	0,0832
482,495	0,08752
482,833	0,08702
483,17	0,10033
483,507	0,09509
483,844	0,09877
484,181	0,10919
484,518	0,10843
484,855	0,10439
485,192	0,11312
485,529	0,10817
485,866	0,11519
486,203	0,11207
486,54	0,11887
486,877	0,14639
487,214	0,12409
487,551	0,16481
487,887	0,1288
488,224	0,15023
488,561	0,17901
488,898	0,18965
489,235	0,16509
489,571	0,18372
489,908	0,17801
490,245	0,20733
490,582	0,22006
490,918	0,20332
491,255	0,24151
491,592	0,25509
491,928	0,26269
492,265	0,27385
492,601	0,31927
492,938	0,31762
493,275	0,34167
493,611	0,36101
493,948	0,38262
494,284	0,41789
494,621	0,44508
494,957	0,45705
495,293	0,51267
495,63	0,54535
495,966	0,57336
496,303	0,59419
496,639	0,66536
496,975	0,71945
497,312	0,7607
497,648	0,81434
497,984	0,86431
498,32	0,92524
498,657	0,99288
498,993	1,06254
499,329	1,13374
499,665	1,18893
500,001	1,29592
500,337	1,3534
500,674	1,47179
501,01	1,56932
501,346	1,66906
501,682	1,78785
502,018	1,88167
502,354	2,04115
502,69	2,15329
503,026	2,29306
503,362	2,43406
503,698	2,62143
504,034	2,71603
504,37	2,8773
504,705	3,05679
505,041	3,26658
505,377	3,43032
505,713	3,64282
506,049	3,8895
506,385	4,0262
506,72	4,30793
507,056	4,50985
507,392	4,75754
507,727	5,01145
508,063	5,2496
508,399	5,51258
508,734	5,7649
509,07	6,03609
509,406	6,4101
509,741	6,61149
510,077	6,8669
510,412	7,27394
510,748	7,53264
511,083	7,83112
511,419	8,16062
511,754	8,52276
512,09	8,8752
512,425	9,22523
512,761	9,58128
513,096	9,92004
513,431	10,30624
513,767	10,65437
514,102	11,04214
514,437	11,45558
514,773	11,84608
515,108	12,2669
515,443	12,69931
515,778	13,05027
516,114	13,45749
516,449	13,89228
516,784	14,35006
517,119	14,79197
517,454	15,18872
517,789	15,56493
518,125	16,04665
518,46	16,47889
518,795	16,87648
519,13	17,41225
519,465	17,77078
519,8	18,27404
520,135	18,6205
520,47	19,17425
520,805	19,63886
521,14	20,08759
521,474	20,44658
521,809	20,90572
522,144	21,38251
522,479	21,78338
522,814	22,23913
523,149	22,68997
523,483	23,11473
523,818	23,52576
524,153	23,91632
524,488	24,36024
524,822	24,935
525,157	25,24077
525,492	25,47087
525,826	26,08683
526,161	26,49295
526,496	26,97465
526,83	27,44146
527,165	27,72971
527,499	28,19936
527,834	28,61102
528,168	28,91713
528,503	29,34447
528,837	29,82289
529,172	30,02303
529,506	30,46844
529,841	30,78211
530,175	31,31759
530,509	31,61046
530,844	32,03771
531,178	32,35626
531,512	32,57915
531,847	32,90446
532,181	33,38652
532,515	33,7526
532,849	34,03734
533,184	34,26843
533,518	34,50988
533,852	34,90852
534,186	35,28753
534,52	35,41035
534,854	35,78898
535,188	36,07175
535,522	36,55286
535,857	36,71359
536,191	37,00675
536,525	37,22963
536,859	37,55167
537,193	37,76872
537,526	37,94648
537,86	38,36239
538,194	38,53399
538,528	38,84155
538,862	38,99803
539,196	39,15042
539,53	39,73874
539,864	39,87291
540,197	39,9511
540,531	40,1464
540,865	40,26712
541,199	40,66997
541,532	40,80969
541,866	40,87329
542,2	41,20079
542,533	41,3726
542,867	41,42136
543,201	41,7007
543,534	41,92269
543,868	41,94967
544,201	42,10239
544,535	42,27695
544,869	42,57243
545,202	42,8109
545,535	42,83083
545,869	42,83777
546,202	42,95248
546,536	43,0967
546,869	43,32607
547,203	43,4442
547,536	43,63348
547,869	43,662
548,203	43,87239
548,536	43,94075
548,869	43,95905
549,202	44,15675
549,536	44,27681
549,869	44,23383
550,202	44,45066
550,535	44,50166
550,869	44,52145
551,202	44,73411
551,535	44,82566
551,868	44,69616
552,201	44,81948
552,534	45,03783
552,867	44,89563
553,2	45,02404
553,533	45,19334
553,866	45,41999
554,199	45,19048
554,532	45,25407
554,865	45,39531
555,198	45,45624
555,531	45,41867
555,864	45,58656
556,197	45,56932
556,529	45,72681
556,862	45,70013
557,195	45,8606
557,528	45,82702
557,86	45,93354
558,193	45,88961
558,526	45,93352
558,859	45,92987
559,191	46,04196
559,524	45,93825
559,857	46,11331
560,189	45,89938
560,522	45,83383
560,854	46,03041
561,187	46,11188
561,519	46,11229
561,852	46,18802
562,184	46,28183
562,517	46,2328
562,849	46,19391
563,182	46,14886
563,514	46,29802
563,847	46,36929
564,179	46,22978
564,511	46,16697
564,844	46,23111
565,176	46,16019
565,508	46,26619
565,841	46,1431
566,173	46,07053
566,505	46,20503
566,837	46,15453
567,17	46,0169
567,502	46,1054
567,834	45,97655
568,166	45,91477
568,498	45,92405
568,83	45,95415
569,162	45,91597
569,494	45,95273
569,826	45,72871
570,158	45,91828
570,49	45,92984
570,822	45,88272
571,154	45,70429
571,486	45,74972
571,818	45,61319
572,15	45,5486
572,482	45,53341
572,814	45,39765
573,146	45,64719
573,478	45,49017
573,809	45,42228
574,141	45,25598
574,473	45,42361
574,805	45,25253
575,136	45,17136
575,468	45,10347
575,8	45,10156
576,131	44,92331
576,463	44,85051
576,795	44,80602
577,126	45,00493
577,458	44,65808
577,789	44,72981
578,121	44,56478
578,452	44,59094
578,784	44,23026
579,115	44,35512
579,447	44,26499
579,778	44,24106
580,11	44,0635
580,441	43,86922
580,773	43,86166
581,104	43,7441
581,435	43,73108
581,767	43,61705
582,098	43,51489
582,429	43,48423
582,761	43,32127
583,092	43,19818
583,423	43,15345
583,754	42,9739
584,085	42,77305
584,417	42,74706
584,748	42,86036
585,079	42,59518
585,41	42,42928
585,741	42,26555
586,072	42,32508
586,403	42,16613
586,734	42,17739
587,065	41,94433
587,396	41,93698
587,727	41,77105
588,058	41,56681
588,389	41,51381
588,72	41,51794
589,051	41,2502
589,382	41,29036
589,713	41,15324
590,043	41,02333
590,374	40,95365
590,705	40,80903
591,036	40,71746
591,367	40,64092
591,697	40,38004
592,028	40,45615
592,359	40,38808
592,689	40,25782
593,02	39,99293
593,351	39,73636
593,681	39,88461
594,012	39,65497
594,342	39,40994
594,673	39,39898
595,003	39,33027
595,334	39,20097
595,664	39,09287
595,995	38,88917
596,325	38,75526
596,656	38,58818
596,986	38,49236
597,317	38,43355
597,647	38,21567
597,977	38,08536
598,308	38,13753
598,638	37,89173
598,968	37,56145
599,299	37,6271
599,629	37,36108
599,959	37,16711
600,289	37,086
600,619	37,06786
600,95	36,90855
601,28	36,74574
601,61	36,56634
601,94	36,37063
602,27	36,24455
602,6	36,07449
602,93	36,06973
603,26	35,80336
603,59	35,62805
603,92	35,4575
604,25	35,33831
604,58	35,22824
604,91	35,08315
605,24	34,89404
605,57	34,70333
605,9	34,56683
606,23	34,34975
606,56	34,28278
606,889	34,282
607,219	34,00798
607,549	33,81063
607,879	33,6205
608,209	33,51142
608,538	33,35457
608,868	33,24106
609,198	33,20731
609,527	32,98111
609,857	32,74915
610,187	32,56926
610,516	32,32149
610,846	32,17935
611,175	32,09637
611,505	31,978
611,834	31,81492
612,164	31,6401
612,493	31,54641
612,823	31,37975
613,152	31,23627
613,482	31,0089
613,811	30,88236
614,14	30,6652
614,47	30,56914
614,799	30,43491
615,128	30,26061
615,458	30,11941
615,787	29,97293
616,116	29,85058
616,445	29,65051
616,775	29,56287
617,104	29,36798
617,433	29,21688
617,762	29,04098
618,091	29,01034
618,421	28,74896
618,75	28,66288
619,079	28,4729
619,408	28,39174
619,737	28,08684
620,066	28,00215
620,395	27,80319
620,724	27,71271
621,053	27,63726
621,382	27,46844
621,711	27,30411
622,04	27,15197
622,368	27,0376
622,697	26,75614
623,026	26,6078
623,355	26,4625
623,684	26,42054
624,013	26,14758
624,341	26,04091
624,67	25,96065
624,999	25,73059
625,327	25,54346
625,656	25,50809
625,985	25,21169
626,313	25,18579
626,642	24,91907
626,971	24,91771
627,299	24,77668
627,628	24,62144
627,956	24,49482
628,285	24,37537
628,613	24,20903
628,942	24,0616
629,27	23,97806
629,599	23,69431
629,927	23,53824
630,256	23,44783
630,584	23,48106
630,912	23,19773
631,241	23,06536
631,569	22,91583
631,897	22,75124
632,226	22,56048
632,554	22,49849
632,882	22,20791
633,21	22,15596
633,538	22,04129
633,867	21,92259
634,195	21,70227
634,523	21,58658
634,851	21,49004
635,179	21,40527
635,507	21,18477
635,835	21,12277
636,163	20,84549
636,491	20,91198
636,819	20,63309
637,147	20,59734
637,475	20,37421
637,803	20,26698
638,131	20,17172
638,459	20,02119
638,787	19,86808
639,115	19,73107
639,443	19,60816
639,771	19,41591
640,098	19,41075
640,426	19,23308
640,754	19,12571
641,082	18,97322
641,409	18,84449
641,737	18,68265
642,065	18,71918
642,392	18,49258
642,72	18,34767
643,048	18,27789
643,375	18,2193
643,703	17,98732
644,03	17,79931
644,358	17,77223
644,685	17,61633
645,013	17,51608
645,34	17,38098
645,668	17,29283
645,995	17,04348
646,323	17,04311
646,65	16,81833
646,978	16,75233
647,305	16,70005
647,632	16,65368
647,96	16,44854
648,287	16,31957
648,614	16,18624
648,941	16,13153
649,269	16,00146
649,596	15,84239
649,923	15,70778
650,25	15,62254
650,577	15,61406
650,905	15,38526
651,232	15,18729
651,559	15,1793
651,886	15,02669
652,213	15,00906
652,54	14,86445
652,867	14,85781
653,194	14,60725
653,521	14,60445
653,848	14,43341
654,175	14,37038
654,502	14,19064
654,829	14,14932
655,156	14,12243
655,483	13,97161
655,809	13,82435
656,136	13,79119
656,463	13,68028
656,79	13,57398
657,117	13,33796
657,443	13,26579
657,77	13,31026
658,097	13,16152
658,423	13,0841
658,75	13,04475
659,077	12,84618
659,403	12,69471
659,73	12,66589
660,056	12,55462
660,383	12,33107
660,71	12,37667
661,036	12,23917
661,363	12,1228
661,689	12,08619
662,016	12,01257
662,342	11,87451
662,668	11,78111
662,995	11,76452
663,321	11,62338
663,648	11,49147
663,974	11,44065
664,3	11,35317
664,626	11,25326
664,953	11,30207
665,279	11,1012
665,605	10,95151
665,931	10,90264
666,258	10,85111
666,584	10,73507
666,91	10,6139
667,236	10,57587
667,562	10,49136
667,888	10,36653
668,214	10,39005
668,541	10,23643
668,867	10,11994
669,193	10,01864
669,519	9,99977
669,845	9,84449
670,171	9,76929
670,496	9,70747
670,822	9,59475
671,148	9,5771
671,474	9,49696
671,8	9,44158
672,126	9,359
672,452	9,262
672,777	9,17155
673,103	9,1373
673,429	8,98428
673,755	8,87573
674,08	8,86744
674,406	8,82503
674,732	8,74326
675,057	8,73691
675,383	8,60811
675,709	8,50093
676,034	8,51207
676,36	8,4146
676,685	8,28459
677,011	8,21935
677,337	8,20234
677,662	8,15447
677,987	8,07858
678,313	8,01663
678,638	7,92342
678,964	7,88328
679,289	7,83978
679,615	7,73954
679,94	7,68527
680,265	7,61423
680,591	7,52168
680,916	7,43442
681,241	7,37901
681,566	7,37962
681,892	7,33596
682,217	7,24122
682,542	7,19473
682,867	7,14614
683,192	7,06934
683,517	7,00091
683,843	7,0037
684,168	6,90518
684,493	6,84005
684,818	6,80751
685,143	6,73529
685,468	6,70425
685,793	6,62351
686,118	6,57406
686,443	6,5918
686,768	6,48168
687,093	6,47452
687,418	6,43416
687,742	6,40555
688,067	6,35691
688,392	6,25948
688,717	6,26692
689,042	6,15828
689,366	6,10234
689,691	6,07301
690,016	6,04371
690,341	6,00912
690,665	5,97499
690,99	5,99315
691,315	5,86533
691,639	5,84226
691,964	5,80382
692,288	5,71967
692,613	5,6764
692,938	5,67462
693,262	5,58656
693,587	5,50324
693,911	5,50311
694,236	5,50033
694,56	5,45444
694,884	5,38387
695,209	5,39311
695,533	5,31362
695,858	5,30388
696,182	5,28557
696,506	5,21962
696,831	5,12717
697,155	5,11171
697,479	5,07766
697,803	5,01514
698,128	4,95007
698,452	4,93119
698,776	4,87526
699,1	4,8861
699,424	4,82581
699,748	4,82048
700,073	4,73982
700,397	4,70346
700,721	4,72342
701,045	4,63162
701,369	4,61555
701,693	4,5922
702,017	4,53408
702,341	4,45078
702,665	4,44599
702,989	4,43805
703,313	4,42139
703,636	4,36048
703,96	4,34547
704,284	4,28795
704,608	4,34025
704,932	4,20791
705,256	4,19858
705,579	4,17871
705,903	4,13645
706,227	4,08042
706,55	4,02068
706,874	4,01318
707,198	3,95003
707,521	3,97937
707,845	3,91914
708,169	3,90337
708,492	3,92557
708,816	3,83024
709,139	3,8122
709,463	3,78344
709,786	3,76286
710,11	3,70866
710,433	3,65366
710,757	3,62846
711,08	3,57502
711,404	3,53327
711,727	3,47866
712,05	3,48748
712,374	3,47515
712,697	3,45053
713,02	3,4503
713,344	3,41005
713,667	3,37938
713,99	3,37026
714,313	3,30687
714,636	3,31127
714,96	3,30326
715,283	3,22921
715,606	3,2175
715,929	3,14869
716,252	3,17088
716,575	3,15923
716,898	3,07334
717,221	3,06098
717,544	3,06407
717,867	3,04709
718,19	2,98334
718,513	3,00369
718,836	2,95631
719,159	2,94631
719,482	2,91398
719,805	2,90195
720,128	2,8627
720,451	2,88641
720,773	2,84098
721,096	2,75405
721,419	2,76736
721,742	2,76736
722,064	2,72126
722,387	2,68241
722,71	2,67697
723,032	2,65973
723,355	2,64112
723,678	2,62206
724	2,62088
724,323	2,57405
724,646	2,55449
724,968	2,56431
725,291	2,52504
725,613	2,50077
725,936	2,43635
726,258	2,43315
726,58	2,43084
726,903	2,37385
727,225	2,35163
727,548	2,36564
727,87	2,32496
728,192	2,28171
728,515	2,29514
728,837	2,30166
729,159	2,28006
729,482	2,2564
729,804	2,22196
730,126	2,21394
730,448	2,17859
730,77	2,1462
731,093	2,16714
731,415	2,17029
731,737	2,13358
732,059	2,04334
732,381	2,12476
732,703	2,04744
733,025	2,03708
733,347	2,00757
733,669	2,0162
733,991	2,00447
734,313	1,96701
734,635	1,97136
734,957	1,9603
735,279	1,91659
735,601	1,90301
735,923	1,91429
736,244	1,9289
736,566	1,88607
736,888	1,85156
737,21	1,87822
737,532	1,8118
737,853	1,80145
738,175	1,79759
738,497	1,76155
738,818	1,74537
739,14	1,7389
739,462	1,75732
739,783	1,78399
740,105	1,73876
740,427	1,67384
740,748	1,68965
741,07	1,69789
741,391	1,64272
741,713	1,64593
742,034	1,62563
742,356	1,59704
742,677	1,59826
742,998	1,61879
743,32	1,56431
743,641	1,57696
743,963	1,542
744,284	1,50902
744,605	1,50841
744,926	1,50212
745,248	1,50539
745,569	1,4856
745,89	1,48208
746,211	1,46271
746,533	1,43936
746,854	1,45556
747,175	1,43885
747,496	1,41773
747,817	1,40621
748,138	1,38541
748,459	1,39053
748,78	1,35833
749,101	1,3759
749,422	1,34768
749,743	1,34335
750,064	1,312
750,385	1,31967
750,706	1,30319
751,027	1,31611
751,348	1,25854
751,669	1,26127
751,99	1,26782
752,311	1,26245
752,631	1,23883
752,952	1,24027
753,273	1,24264
753,594	1,20119
753,914	1,22176
754,235	1,2018
754,556	1,20291
754,876	1,16696
755,197	1,17345
755,518	1,19633
755,838	1,17719
756,159	1,16216
756,479	1,11193
756,8	1,11897
757,12	1,08988
757,441	1,10452
757,761	1,07186
758,082	1,0933
758,402	1,09209
758,723	1,06918
759,043	1,04
759,363	1,06455
759,684	1,04572
760,004	1,01896
760,324	1,05698
760,645	1,01276
760,965	1,0271
761,285	0,98398
761,606	0,99903
761,926	1,01002
762,246	1,00086
762,566	0,9716
762,886	0,96238
763,206	0,95695
763,526	0,95437
763,847	0,93855
764,167	0,9142
764,487	0,95745
764,807	0,91894
765,127	0,90623
765,447	0,90354
765,767	0,91983
766,087	0,87629
766,407	0,87462
766,726	0,86407
767,046	0,88395
767,366	0,88918
767,686	0,8949
768,006	0,85233
768,326	0,87269
768,645	0,85354
768,965	0,84936
769,285	0,83612
769,605	0,83573
769,924	0,79125
770,244	0,80373
770,564	0,77732
770,883	0,79792
771,203	0,79284
771,523	0,78848
771,842	0,78261
772,162	0,75712
772,481	0,74943
772,801	0,75545
773,12	0,74412
773,44	0,76496
773,759	0,7606
774,079	0,74712
774,398	0,71154
774,718	0,71271
775,037	0,71597
775,356	0,72181
775,676	0,72411
775,995	0,69534
776,314	0,69545
776,633	0,68947
776,953	0,69824
777,272	0,67912
777,591	0,66985
777,91	0,68767
778,23	0,67292
778,549	0,64445
778,868	0,65502
779,187	0,66019
779,506	0,64564
779,825	0,63942
780,144	0,63448
780,463	0,64335
780,782	0,61545
781,101	0,66368
781,42	0,59379
781,739	0,612
782,058	0,62961
782,377	0,60075
782,696	0,63482
783,015	0,59419
783,333	0,57864
783,652	0,56109
783,971	0,58735
784,29	0,59712
784,609	0,57776
784,927	0,5675
785,246	0,55067
785,565	0,55663
785,883	0,54534
786,202	0,53479
786,521	0,55054
786,839	0,55802
787,158	0,54622
787,477	0,53421
787,795	0,54345
788,114	0,51874
788,432	0,54042
788,751	0,52417
789,069	0,49975
789,388	0,50288
789,706	0,50897
790,024	0,51711
790,343	0,51486
790,661	0,50743
790,98	0,50741
791,298	0,48498
791,616	0,49929
791,935	0,48639
792,253	0,48377
792,571	0,46644
792,889	0,46449
793,208	0,46292
793,526	0,47747
793,844	0,47413
794,162	0,44345
794,48	0,46861
794,798	0,44074
795,116	0,4788
795,434	0,45819
795,752	0,44327
796,07	0,42772
796,388	0,43517
796,706	0,42172
797,024	0,4413
797,342	0,43679
797,66	0,42226
797,978	0,41623
798,296	0,42768
798,614	0,40661
798,932	0,395
799,25	0,41971
799,567	0,41281
799,885	0,3933
800,203	0,44507
800,521	0,39916
800,838	0,38652
801,156	0,40653
801,474	0,39508
801,791	0,40832
802,109	0,3884
802,427	0,37805
802,744	0,39402
803,062	0,38923
803,379	0,40681
803,697	0,36802
804,014	0,36429
804,332	0,35291
804,649	0,34053
804,967	0,34437
805,284	0,37793
805,602	0,35359
805,919	0,34416
806,236	0,3709
806,554	0,36948
806,871	0,36416
807,188	0,34713
807,506	0,35795
807,823	0,34019
808,14	0,34474
808,458	0,3319
808,775	0,34761
809,092	0,3246
809,409	0,34331
809,726	0,30346
810,043	0,32592
810,36	0,31127
810,678	0,3227
810,995	0,30472
811,312	0,29668
811,629	0,33504
811,946	0,30391
812,263	0,33695
812,58	0,33574
812,897	0,28535
813,213	0,30649
813,53	0,29786
813,847	0,34647
814,164	0,32156
814,481	0,31117
814,798	0,31377
815,115	0,30647
815,431	0,26987
815,748	0,28929
816,065	0,28607
816,382	0,25099
816,698	0,31453
817,015	0,28027
817,332	0,27969
817,648	0,26564
817,965	0,28853
818,281	0,26661
818,598	0,27349
818,914	0,28866
819,231	0,29476
819,548	0,26222
819,864	0,2644
820,18	0,27703
820,497	0,27897
820,813	0,25175
821,13	0,26916
821,446	0,24029
821,762	0,24187
822,079	0,25351
822,395	0,27844
822,711	0,25184
823,028	0,25577
823,344	0,2866
823,66	0,23668
823,976	0,27425
824,293	0,26266
824,609	0,24537
824,925	0,24456
825,241	0,27187
825,557	0,25813
825,873	0,22064
826,189	0,22202
826,505	0,2302
826,822	0,22128
827,138	0,25456
827,454	0,23483
827,769	0,21904
828,085	0,23091
828,401	0,21929
828,717	0,23015
829,033	0,22155
829,349	0,22297
829,665	0,21313
829,981	0,20322
830,297	0,19112
830,612	0,20367
830,928	0,22647
831,244	0,21746
831,56	0,2188
831,875	0,21857
832,191	0,20629
832,507	0,2111
832,822	0,19887
833,138	0,21024
833,453	0,19856
833,769	0,19237
834,085	0,19201
834,4	0,19927
834,716	0,2127
835,031	0,21208
835,347	0,21928
835,662	0,19491
835,978	0,20091
836,293	0,20129
836,608	0,22335
836,924	0,18801
837,239	0,20548
837,554	0,20587
837,87	0,22536
838,185	0,20022
838,5	0,1843
838,816	0,16197
839,131	0,18235
839,446	0,1746
839,761	0,20735
840,076	0,17539
840,392	0,19474
840,707	0,19075
841,022	0,1885
841,337	0,18273
841,652	0,21746
841,967	0,1806
842,282	0,18739
842,597	0,19762
842,912	0,19232
843,227	0,1656
843,542	0,18737
843,857	0,18578
844,172	0,18797
844,487	0,17565
844,801	0,19203
845,116	0,19855
845,431	0,17562
845,746	0,17217
846,061	0,19852
846,375	0,19307
846,69	0,14724
847,005	0,16137
847,32	0,15262
847,634	0,14702
847,949	0,15473
848,264	0,17308
848,578	0,14595
848,893	0,14928
849,207	0,15281
849,522	0,15026
849,836	0,16314
850,151	0,15827
850,465	0,17146
850,78	0,16946
851,094	0,16752
851,409	0,1525
851,723	0,15033
852,038	0,15203
852,352	0,11661
852,666	0,14019
852,981	0,15008
853,295	0,16483
853,609	0,14617
853,923	0,17319
854,238	0,16627
854,552	0,15388
854,866	0,17012
855,18	0,15716
855,494	0,16029
855,809	0,1294
856,123	0,16186
856,437	0,15231
856,751	0,13717
857,065	0,13485
857,379	0,16975
857,693	0,11402
858,007	0,14769
858,321	0,12092
858,635	0,11164
858,949	0,16417
859,263	0,14557
859,577	0,11
859,89	0,12708
860,204	0,14085
860,518	0,1274
860,832	0,14299
861,146	0,14425
861,459	0,1275
861,773	0,13848
862,087	0,13603
862,401	0,13617
862,714	0,12903
